Motion Sensor Data File Oct 7, 2021 9:55 AM
Time (s)	Distance (cm)	Dist Error (cm)
0.550	27.024	0.239
0.560	27.015	0.239
0.570	26.968	0.239
0.580	26.899	0.239
0.590	26.826	0.239
0.600	26.706	0.239
0.610	26.568	0.239
0.620	26.422	0.239
0.630	26.241	0.239
0.640	26.039	0.239
0.650	25.846	0.239
0.660	25.605	0.239
0.670	25.360	0.239
0.680	25.119	0.239
0.690	24.853	0.239
0.700	24.573	0.239
0.710	24.302	0.239
0.720	24.014	0.239
0.730	23.730	0.239
0.740	23.455	0.239
0.750	23.167	0.239
0.760	22.888	0.239
0.770	22.626	0.239
0.780	22.359	0.239
0.790	22.101	0.239
0.800	21.869	0.239
0.810	21.641	0.239
0.820	21.426	0.239
0.830	21.241	0.239
0.840	21.069	0.239
0.850	20.906	0.239
0.860	20.785	0.239
0.870	20.674	0.239
0.880	20.579	0.239
0.890	20.523	0.239
0.900	20.485	0.239
0.910	20.463	0.239
0.920	20.485	0.239
0.930	20.511	0.239
0.940	20.566	0.239
0.950	20.665	0.239
0.960	20.769	0.239
0.970	20.885	0.239
0.980	21.052	0.239
0.990	21.211	0.239
1.000	21.401	0.239
1.010	21.616	0.239
1.020	21.835	0.239
1.030	22.071	0.239
1.040	22.329	0.239
1.050	22.587	0.239
1.060	22.850	0.239
1.070	23.134	0.239
1.080	23.413	0.239
1.090	23.688	0.239
1.100	23.981	0.239
1.110	24.260	0.239
1.120	24.539	0.239
1.130	24.823	0.239
1.140	25.081	0.239
1.150	25.326	0.239
1.160	25.580	0.239
1.170	25.808	0.239
1.180	26.010	0.239
1.190	26.221	0.239
1.200	26.393	0.239
1.210	26.547	0.239
1.220	26.689	0.239
1.230	26.805	0.239
1.240	26.891	0.239
1.250	26.964	0.239
1.260	27.007	0.239
1.270	27.020	0.239
1.280	27.025	0.239
1.290	26.991	0.239
1.300	26.930	0.239
1.310	26.866	0.239
1.320	26.763	0.239
1.330	26.629	0.239
1.340	26.496	0.239
1.350	26.320	0.239
1.360	26.139	0.239
1.370	25.937	0.239
1.380	25.718	0.239
1.390	25.481	0.239
1.400	25.241	0.239
1.410	24.974	0.239
1.420	24.704	0.239
1.430	24.441	0.239
1.440	24.157	0.239
1.450	23.869	0.239
1.460	23.594	0.239
1.470	23.306	0.239
1.480	23.022	0.239
1.490	22.760	0.239
1.500	22.489	0.239
1.510	22.231	0.239
1.520	21.995	0.239
1.530	21.763	0.239
1.540	21.539	0.239
1.550	21.350	0.239
1.560	21.161	0.239
1.570	21.002	0.239
1.580	20.860	0.239
1.590	20.744	0.239
1.600	20.640	0.239
1.610	20.572	0.239
1.620	20.516	0.239
1.630	20.490	0.239
1.640	20.494	0.239
1.650	20.516	0.239
1.660	20.559	0.239
1.670	20.640	0.239
1.680	20.735	0.239
1.690	20.843	0.239
1.700	20.997	0.239
1.710	21.148	0.239
1.720	21.328	0.239
1.730	21.531	0.239
1.740	21.746	0.239
1.750	21.969	0.239
1.760	22.219	0.239
1.770	22.472	0.239
1.780	22.730	0.239
1.790	23.010	0.239
1.800	23.285	0.239
1.810	23.564	0.239
1.820	23.857	0.239
1.830	24.136	0.239
1.840	24.407	0.239
1.850	24.687	0.239
1.860	24.953	0.239
1.870	25.211	0.239
1.880	25.469	0.239
1.890	25.693	0.239
1.900	25.912	0.239
1.910	26.127	0.239
1.920	26.299	0.239
1.930	26.471	0.239
1.940	26.617	0.239
1.950	26.742	0.239
1.960	26.841	0.239
1.970	26.923	0.239
1.980	26.974	0.239
1.990	27.000	0.239
2.000	27.017	0.239
2.010	26.992	0.239
2.020	26.944	0.239
2.030	26.888	0.239
2.040	26.798	0.239
2.050	26.673	0.239
2.060	26.553	0.239
2.070	26.390	0.239
2.080	26.209	0.239
2.090	26.020	0.239
2.100	25.809	0.239
2.110	25.573	0.239
2.120	25.336	0.239
2.130	25.087	0.239
2.140	24.820	0.239
2.150	24.558	0.239
2.160	24.270	0.239
2.170	23.982	0.239
2.180	23.711	0.239
2.190	23.423	0.239
2.200	23.140	0.239
2.210	22.873	0.239
2.220	22.602	0.239
2.230	22.335	0.239
2.240	22.095	0.239
2.250	21.854	0.239
2.260	21.630	0.239
2.270	21.432	0.239
2.280	21.235	0.239
2.290	21.067	0.239
2.300	20.921	0.239
2.310	20.788	0.239
2.320	20.680	0.239
2.330	20.586	0.239
2.340	20.534	0.239
2.350	20.496	0.239
2.360	20.478	0.239
2.370	20.500	0.239
2.380	20.534	0.239
2.390	20.594	0.239
2.400	20.693	0.239
2.410	20.792	0.239
2.420	20.917	0.239
2.430	21.080	0.239
2.440	21.248	0.239
2.450	21.433	0.239
2.460	21.648	0.239
2.470	21.867	0.239
2.480	22.104	0.239
2.490	22.362	0.239
2.500	22.620	0.239
2.510	22.882	0.239
2.520	23.170	0.239
2.530	23.445	0.239
2.540	23.721	0.239
2.550	24.009	0.239
2.560	24.288	0.239
2.570	24.563	0.239
2.580	24.843	0.239
2.590	25.101	0.239
2.600	25.342	0.239
2.610	25.591	0.239
2.620	25.819	0.239
2.630	26.021	0.239
2.640	26.227	0.239
2.650	26.399	0.239
2.660	26.546	0.239
2.670	26.688	0.239
2.680	26.804	0.239
2.690	26.881	0.239
2.700	26.954	0.239
2.710	26.993	0.239
2.720	27.006	0.239
2.730	27.006	0.239
2.740	26.967	0.239
2.750	26.907	0.239
2.760	26.842	0.239
2.770	26.731	0.239
2.780	26.597	0.239
2.790	26.464	0.239
2.800	26.288	0.239
2.810	26.103	0.239
2.820	25.905	0.239
2.830	25.677	0.239
2.840	25.441	0.239
2.850	25.204	0.239
2.860	24.938	0.239
2.870	24.667	0.239
2.880	24.400	0.239
2.890	24.121	0.239
2.900	23.837	0.239
2.910	23.562	0.239
2.920	23.274	0.239
2.930	22.995	0.239
2.940	22.728	0.239
2.950	22.461	0.239
2.960	22.203	0.239
2.970	21.971	0.239
2.980	21.739	0.239
2.990	21.515	0.239
3.000	21.331	0.239
3.010	21.146	0.239
3.020	20.987	0.239
3.030	20.849	0.239
3.040	20.733	0.239
3.050	20.634	0.239
3.060	20.566	0.239
3.070	20.514	0.239
3.080	20.488	0.239
3.090	20.497	0.239
3.100	20.518	0.239
3.110	20.566	0.239
3.120	20.652	0.239
3.130	20.746	0.239
3.140	20.854	0.239
3.150	21.013	0.239
3.160	21.163	0.239
3.170	21.344	0.239
3.180	21.550	0.239
3.190	21.761	0.239
3.200	21.989	0.239
3.210	22.243	0.239
3.220	22.492	0.239
3.230	22.750	0.239
3.240	23.034	0.239
3.250	23.309	0.239
3.260	23.584	0.239
3.270	23.881	0.239
3.280	24.156	0.239
3.290	24.427	0.239
3.300	24.707	0.239
3.310	24.968	0.239
3.320	25.226	0.239
3.330	25.480	0.239
3.340	25.704	0.239
3.350	25.919	0.239
3.360	26.134	0.239
3.370	26.306	0.239
3.380	26.473	0.239
3.390	26.620	0.239
3.400	26.740	0.239
3.410	26.839	0.239
3.420	26.916	0.239
3.430	26.964	0.239
3.440	26.986	0.239
3.450	26.998	0.239
3.460	26.973	0.239
3.470	26.925	0.239
3.480	26.869	0.239
3.490	26.775	0.239
3.500	26.650	0.239
3.510	26.525	0.239
3.520	26.358	0.239
3.530	26.181	0.239
3.540	25.984	0.239
3.550	25.777	0.239
3.560	25.541	0.239
3.570	25.304	0.239
3.580	25.051	0.239
3.590	24.784	0.239
3.600	24.526	0.239
3.610	24.243	0.239
3.620	23.954	0.239
3.630	23.679	0.239
3.640	23.395	0.239
3.650	23.116	0.239
3.660	22.849	0.239
3.670	22.578	0.239
3.680	22.316	0.239
3.690	22.080	0.239
3.700	21.839	0.239
3.710	21.616	0.239
3.720	21.422	0.239
3.730	21.229	0.239
3.740	21.061	0.239
3.750	20.915	0.239
3.760	20.790	0.239
3.770	20.683	0.239
3.780	20.605	0.239
3.790	20.541	0.239
3.800	20.506	0.239
3.810	20.506	0.239
3.820	20.515	0.239
3.830	20.554	0.239
3.840	20.627	0.239
3.850	20.713	0.239
3.860	20.812	0.239
3.870	20.958	0.239
3.880	21.104	0.239
3.890	21.272	0.239
3.900	21.474	0.239
3.910	21.680	0.239
3.920	21.895	0.239
3.930	22.145	0.239
3.940	22.390	0.239
3.950	22.643	0.239
3.960	22.923	0.239
3.970	23.194	0.239
3.980	23.469	0.239
3.990	23.757	0.239
4.000	24.032	0.239
4.010	24.307	0.239
4.020	24.596	0.239
4.030	24.862	0.239
4.040	25.116	0.239
4.050	25.370	0.239
4.060	25.606	0.239
4.070	25.830	0.239
4.080	26.040	0.239
4.090	26.230	0.239
4.100	26.402	0.239
4.110	26.561	0.239
4.120	26.685	0.239
4.130	26.793	0.239
4.140	26.887	0.239
4.150	26.943	0.239
4.160	26.978	0.239
4.170	26.999	0.239
4.180	26.986	0.239
4.190	26.948	0.239
4.200	26.896	0.239
4.210	26.814	0.239
4.220	26.703	0.239
4.230	26.583	0.239
4.240	26.436	0.239
4.250	26.256	0.239
4.260	26.079	0.239
4.270	25.873	0.239
4.280	25.641	0.239
4.290	25.422	0.239
4.300	25.172	0.239
4.310	24.906	0.239
4.320	24.643	0.239
4.330	24.364	0.239
4.340	24.085	0.239
4.350	23.818	0.239
4.360	23.530	0.239
4.370	23.246	0.239
4.380	22.980	0.239
4.390	22.704	0.239
4.400	22.438	0.239
4.410	22.197	0.239
4.420	21.952	0.239
4.430	21.720	0.239
4.440	21.514	0.239
4.450	21.316	0.239
4.460	21.135	0.239
4.470	20.989	0.239
4.480	20.843	0.239
4.490	20.731	0.239
4.500	20.645	0.239
4.510	20.568	0.239
4.520	20.520	0.239
4.530	20.508	0.239
4.540	20.508	0.239
4.550	20.533	0.239
4.560	20.594	0.239
4.570	20.671	0.239
4.580	20.766	0.239
4.590	20.886	0.239
4.600	21.032	0.239
4.610	21.187	0.239
4.620	21.380	0.239
4.630	21.574	0.239
4.640	21.789	0.239
4.650	22.030	0.239
4.660	22.271	0.239
4.670	22.520	0.239
4.680	22.795	0.239
4.690	23.062	0.239
4.700	23.337	0.239
4.710	23.625	0.239
4.720	23.905	0.239
4.730	24.184	0.239
4.740	24.468	0.239
4.750	24.730	0.239
4.760	24.988	0.239
4.770	25.255	0.239
4.780	25.500	0.239
4.790	25.719	0.239
4.800	25.943	0.239
4.810	26.145	0.239
4.820	26.313	0.239
4.830	26.489	0.239
4.840	26.622	0.239
4.850	26.743	0.239
4.860	26.846	0.239
4.870	26.910	0.239
4.880	26.958	0.239
4.890	26.988	0.239
4.900	26.988	0.239
4.910	26.958	0.239
4.920	26.919	0.239
4.930	26.850	0.239
4.940	26.751	0.239
4.950	26.635	0.239
4.960	26.502	0.239
4.970	26.330	0.239
4.980	26.166	0.239
4.990	25.960	0.239
5.000	25.745	0.239
5.010	25.526	0.239
5.020	25.277	0.239
5.030	25.019	0.239
5.040	24.756	0.239
5.050	24.494	0.239
5.060	24.215	0.239
5.070	23.926	0.239
5.080	23.656	0.239
5.090	23.372	0.239
5.100	23.093	0.239
5.110	22.830	0.239
5.120	22.564	0.239
5.130	22.302	0.239
5.140	22.065	0.239
5.150	21.829	0.239
5.160	21.605	0.239
5.170	21.416	0.239
5.180	21.222	0.239
5.190	21.059	0.239
5.200	20.917	0.239
5.210	20.788	0.239
5.220	20.689	0.239
5.230	20.612	0.239
5.240	20.552	0.239
5.250	20.517	0.239
5.260	20.517	0.239
5.270	20.530	0.239
5.280	20.569	0.239
5.290	20.646	0.239
5.300	20.732	0.239
5.310	20.836	0.239
5.320	20.982	0.239
5.330	21.132	0.239
5.340	21.304	0.239
5.350	21.502	0.239
5.360	21.709	0.239
5.370	21.928	0.239
5.380	22.177	0.239
5.390	22.422	0.239
5.400	22.676	0.239
5.410	22.956	0.239
5.420	23.226	0.239
5.430	23.502	0.239
5.440	23.790	0.239
5.450	24.061	0.239
5.460	24.332	0.239
5.470	24.620	0.239
5.480	24.882	0.239
5.490	25.140	0.239
5.500	25.394	0.239
5.510	25.622	0.239
5.520	25.845	0.239
5.530	26.056	0.239
5.540	26.241	0.239
5.550	26.408	0.239
5.560	26.563	0.239
5.570	26.688	0.239
5.580	26.795	0.239
5.590	26.881	0.239
5.600	26.933	0.239
5.610	26.967	0.239
5.620	26.985	0.239
5.630	26.967	0.239
5.640	26.929	0.239
5.650	26.877	0.239
5.660	26.795	0.239
5.670	26.675	0.239
5.680	26.559	0.239
5.690	26.404	0.239
5.700	26.228	0.239
5.710	26.047	0.239
5.720	25.841	0.239
5.730	25.609	0.239
5.740	25.381	0.239
5.750	25.136	0.239
5.760	24.869	0.239
5.770	24.607	0.239
5.780	24.328	0.239
5.790	24.048	0.239
5.800	23.782	0.239
5.810	23.498	0.239
5.820	23.214	0.239
5.830	22.947	0.239
5.840	22.672	0.239
5.850	22.406	0.239
5.860	22.165	0.239
5.870	21.924	0.239
5.880	21.697	0.239
5.890	21.494	0.239
5.900	21.301	0.239
5.910	21.120	0.239
5.920	20.978	0.239
5.930	20.837	0.239
5.940	20.725	0.239
5.950	20.643	0.239
5.960	20.570	0.239
5.970	20.523	0.239
5.980	20.514	0.239
5.990	20.514	0.239
6.000	20.545	0.239
6.010	20.609	0.239
6.020	20.686	0.239
6.030	20.781	0.239
6.040	20.914	0.239
6.050	21.061	0.239
6.060	21.215	0.239
6.070	21.413	0.239
6.080	21.607	0.239
6.090	21.822	0.239
6.100	22.062	0.239
6.110	22.303	0.239
6.120	22.557	0.239
6.130	22.832	0.239
6.140	23.099	0.239
6.150	23.369	0.239
6.160	23.657	0.239
6.170	23.937	0.239
6.180	24.212	0.239
6.190	24.500	0.239
6.200	24.762	0.239
6.210	25.016	0.239
6.220	25.278	0.239
6.230	25.519	0.239
6.240	25.743	0.239
6.250	25.958	0.239
6.260	26.160	0.239
6.270	26.323	0.239
6.280	26.500	0.239
6.290	26.629	0.239
6.300	26.745	0.239
6.310	26.848	0.239
6.320	26.908	0.239
6.330	26.951	0.239
6.340	26.981	0.239
6.350	26.977	0.239
6.360	26.947	0.239
6.370	26.909	0.239
6.380	26.831	0.239
6.390	26.732	0.239
6.400	26.616	0.239
6.410	26.479	0.239
6.420	26.302	0.239
6.430	26.139	0.239
6.440	25.932	0.239
6.450	25.713	0.239
6.460	25.498	0.239
6.470	25.244	0.239
6.480	24.986	0.239
6.490	24.733	0.239
6.500	24.462	0.239
6.510	24.183	0.239
6.520	23.912	0.239
6.530	23.628	0.239
6.540	23.344	0.239
6.550	23.078	0.239
6.560	22.802	0.239
6.570	22.536	0.239
6.580	22.291	0.239
6.590	22.041	0.239
6.600	21.810	0.239
6.610	21.603	0.239
6.620	21.397	0.239
6.630	21.208	0.239
6.640	21.061	0.239
6.650	20.907	0.239
6.660	20.786	0.239
6.670	20.696	0.239
6.680	20.614	0.239
6.690	20.554	0.239
6.700	20.532	0.239
6.710	20.524	0.239
6.720	20.541	0.239
6.730	20.597	0.239
6.740	20.661	0.239
6.750	20.747	0.239
6.760	20.868	0.239
6.770	21.005	0.239
6.780	21.152	0.239
6.790	21.337	0.239
6.800	21.526	0.239
6.810	21.732	0.239
6.820	21.969	0.239
6.830	22.201	0.239
6.840	22.446	0.239
6.850	22.717	0.239
6.860	22.979	0.239
6.870	23.250	0.239
6.880	23.538	0.239
6.890	23.813	0.239
6.900	24.084	0.239
6.910	24.368	0.239
6.920	24.635	0.239
6.930	24.901	0.239
6.940	25.168	0.239
6.950	25.404	0.239
6.960	25.632	0.239
6.970	25.864	0.239
6.980	26.062	0.239
6.990	26.243	0.239
7.000	26.419	0.239
7.010	26.561	0.239
7.020	26.681	0.239
7.030	26.798	0.239
7.040	26.875	0.239
7.050	26.922	0.239
7.060	26.961	0.239
7.070	26.970	0.239
7.080	26.948	0.239
7.090	26.918	0.239
7.100	26.853	0.239
7.110	26.767	0.239
7.120	26.660	0.239
7.130	26.531	0.239
7.140	26.372	0.239
7.150	26.213	0.239
7.160	26.011	0.239
7.170	25.809	0.239
7.180	25.590	0.239
7.190	25.345	0.239
7.200	25.100	0.239
7.210	24.850	0.239
7.220	24.575	0.239
7.230	24.295	0.239
7.240	24.025	0.239
7.250	23.745	0.239
7.260	23.466	0.239
7.270	23.195	0.239
7.280	22.920	0.239
7.290	22.649	0.239
7.300	22.395	0.239
7.310	22.146	0.239
7.320	21.905	0.239
7.330	21.690	0.239
7.340	21.479	0.239
7.350	21.286	0.239
7.360	21.123	0.239
7.370	20.968	0.239
7.380	20.830	0.239
7.390	20.736	0.239
7.400	20.646	0.239
7.410	20.577	0.239
7.420	20.547	0.239
7.430	20.525	0.239
7.440	20.529	0.239
7.450	20.572	0.239
7.460	20.628	0.239
7.470	20.710	0.239
7.480	20.818	0.239
7.490	20.938	0.239
7.500	21.084	0.239
7.510	21.256	0.239
7.520	21.441	0.239
7.530	21.639	0.239
7.540	21.867	0.239
7.550	22.095	0.239
7.560	22.340	0.239
7.570	22.602	0.239
7.580	22.864	0.239
7.590	23.131	0.239
7.600	23.415	0.239
7.610	23.686	0.239
7.620	23.961	0.239
7.630	24.249	0.239
7.640	24.524	0.239
7.650	24.786	0.239
7.660	25.036	0.239
7.670	25.294	0.239
7.680	25.535	0.239
7.690	25.754	0.239
7.700	25.969	0.239
7.710	26.167	0.239
7.720	26.330	0.239
7.730	26.502	0.239
7.740	26.627	0.239
7.750	26.739	0.239
7.760	26.842	0.239
7.770	26.898	0.239